# This file was created Fri Jun 17 00:04:13 2022
# Created by:
#                      :-) GROMACS - gmx energy, 2019.6 (-:
# 
# Executable:   /home/naval/research/plumed/conda/envs/ISDD-tutorial-2021/bin/gmx
# Data prefix:  /home/naval/research/plumed/conda/envs/ISDD-tutorial-2021
# Working dir:  /home/naval/Research/ADP
# Command line:
#   gmx energy -f em.edr -o potential.xvg
# gmx energy is part of G R O M A C S:
#
# God Rules Over Mankind, Animals, Cosmos and Such
#

    0.000000  33442.554688
    1.000000  16313.333984
    2.000000  -1875.675781
    3.000000  -16855.441406
    4.000000  -29924.277344
    5.000000  -32912.992188
    6.000000  -36026.898438
    8.000000  -38801.292969
    9.000000  -39773.039062
   10.000000  -43314.371094
   12.000000  -44455.992188
   13.000000  -44969.792969
   14.000000  -45698.890625
   16.000000  -47674.398438
   17.000000  -48633.617188
   18.000000  -50369.789062
   20.000000  -51042.921875
   21.000000  -51255.054688
   22.000000  -52068.875000
   24.000000  -52664.804688
   25.000000  -52983.902344
   26.000000  -53538.445312
   27.000000  -53557.796875
   28.000000  -54004.730469
   30.000000  -54824.921875
   31.000000  -55007.742188
   32.000000  -56020.914062
   34.000000  -56247.851562
   35.000000  -56490.375000
   36.000000  -56593.671875
   37.000000  -56807.546875
   39.000000  -57360.054688
   40.000000  -57583.925781
   41.000000  -58187.167969
   43.000000  -58383.921875
   44.000000  -58498.710938
   45.000000  -58692.593750
   47.000000  -58966.625000
   48.000000  -59203.714844
   49.000000  -59506.058594
   51.000000  -59662.246094
   52.000000  -59786.289062
   53.000000  -59950.664062
   54.000000  -59991.507812
   55.000000  -60165.210938
   57.000000  -60401.937500
   58.000000  -60491.375000
   59.000000  -60761.054688
   61.000000  -60892.179688
   62.000000  -60967.125000
   63.000000  -61110.664062
   65.000000  -61251.644531
   66.000000  -61372.824219
   67.000000  -61528.867188
   68.000000  -61534.132812
   69.000000  -61695.601562
   71.000000  -61859.156250
   72.000000  -61895.550781
   73.000000  -62103.781250
   75.000000  -62199.257812
   76.000000  -62258.679688
   77.000000  -62347.750000
   78.000000  -62367.683594
   79.000000  -62430.960938
   81.000000  -62647.429688
   82.000000  -62723.273438
   83.000000  -63016.250000
   85.000000  -63069.808594
   86.000000  -63142.234375
   87.000000  -63159.375000
   88.000000  -63226.804688
   90.000000  -63387.582031
   91.000000  -63430.078125
   92.000000  -63625.441406
   94.000000  -63688.363281
   95.000000  -63726.253906
   96.000000  -63786.929688
   97.000000  -63787.382812
   98.000000  -63838.945312
  100.000000  -64014.257812
  102.000000  -64085.171875
  103.000000  -64152.414062
  104.000000  -64184.734375
  105.000000  -64252.906250
  107.000000  -64330.539062
  108.000000  -64397.468750
  109.000000  -64497.289062
  111.000000  -64548.085938
  112.000000  -64594.042969
  113.000000  -64640.804688
  114.000000  -64674.460938
  115.000000  -64708.359375
  116.000000  -64723.703125
  117.000000  -64729.335938
  119.000000  -64911.046875
  120.000000  -64974.277344
  121.000000  -65227.960938
  123.000000  -65245.640625
  124.000000  -65303.550781
  126.000000  -65369.039062
  127.000000  -65407.457031
  128.000000  -65485.035156
  130.000000  -65529.425781
  131.000000  -65562.593750
  132.000000  -65611.156250
  133.000000  -65619.906250
  134.000000  -65671.726562
  136.000000  -65744.578125
  137.000000  -65769.312500
  138.000000  -65857.851562
  140.000000  -65899.007812
  141.000000  -65923.632812
  142.000000  -65967.242188
  143.000000  -65969.101562
  144.000000  -66012.890625
  146.000000  -66097.007812
  147.000000  -66106.625000
  148.000000  -66211.765625
  150.000000  -66248.750000
  151.000000  -66267.796875
  152.000000  -66304.429688
  154.000000  -66361.453125
  155.000000  -66410.046875
  156.000000  -66480.046875
  158.000000  -66513.148438
  159.000000  -66540.523438
  160.000000  -66573.593750
  161.000000  -66587.632812
  162.000000  -66618.851562
  164.000000  -66683.820312
  165.000000  -66723.187500
  166.000000  -66804.312500
  168.000000  -66834.617188
  169.000000  -66857.906250
  170.000000  -66886.367188
  171.000000  -66896.679688
  172.000000  -66919.304688
  174.000000  -66995.789062
  175.000000  -67027.289062
  176.000000  -67124.601562
  178.000000  -67150.835938
  179.000000  -67171.921875
  180.000000  -67193.218750
  181.000000  -67202.023438
  182.000000  -67213.687500
  184.000000  -67305.476562
  185.000000  -67330.789062
  186.000000  -67450.476562
  188.000000  -67470.867188
  189.000000  -67491.703125
  190.000000  -67503.460938
  191.000000  -67513.281250
  193.000000  -67594.109375
  194.000000  -67646.539062
  195.000000  -67759.382812
  197.000000  -67775.843750
  198.000000  -67804.257812
  199.000000  -67806.250000
  200.000000  -67833.500000
  202.000000  -67892.304688
  203.000000  -67900.437500
  204.000000  -67975.539062
  206.000000  -67999.523438
  207.000000  -68013.617188
  208.000000  -68036.328125
  209.000000  -68037.359375
  210.000000  -68056.656250
  212.000000  -68127.187500
  213.000000  -68131.125000
  214.000000  -68217.859375
  216.000000  -68239.054688
  217.000000  -68252.570312
  218.000000  -68271.343750
  219.000000  -68272.304688
  220.000000  -68285.164062
  222.000000  -68362.570312
  223.000000  -68362.656250
  224.000000  -68458.781250
  226.000000  -68476.710938
  227.000000  -68490.726562
  228.000000  -68504.093750
  229.000000  -68506.906250
  230.000000  -68511.117188
  232.000000  -68597.273438
  233.000000  -68598.203125
  234.000000  -68705.906250
  236.000000  -68719.859375
  237.000000  -68735.484375
  238.000000  -68741.859375
  239.000000  -68748.679688
  241.000000  -68816.562500
  242.000000  -68848.195312
  243.000000  -68940.914062
  245.000000  -68952.968750
  246.000000  -68975.109375
  247.000000  -68975.914062
  248.000000  -68997.406250
  250.000000  -69043.359375
  251.000000  -69049.640625
  252.000000  -69106.859375
  254.000000  -69125.617188
  255.000000  -69137.320312
  256.000000  -69154.929688
  257.000000  -69157.484375
  258.000000  -69171.781250
  260.000000  -69224.773438
  261.000000  -69232.875000
  262.000000  -69299.875000
  264.000000  -69315.679688
  265.000000  -69328.445312
  266.000000  -69340.843750
  267.000000  -69346.203125
  268.000000  -69351.609375
  270.000000  -69412.804688
  271.000000  -69430.898438
  272.000000  -69509.109375
  274.000000  -69521.085938
  275.000000  -69536.171875
  276.000000  -69542.312500
  277.000000  -69552.015625
  279.000000  -69599.476562
  280.000000  -69624.578125
  281.000000  -69687.601562
  283.000000  -69700.437500
  284.000000  -69716.375000
  285.000000  -69722.593750
  286.000000  -69736.570312
  288.000000  -69773.015625
  289.000000  -69794.398438
  290.000000  -69840.671875
  292.000000  -69855.218750
  293.000000  -69868.312500
  294.000000  -69880.382812
  295.000000  -69888.546875
  296.000000  -69896.093750
  298.000000  -69938.539062
  299.000000  -69974.914062
  300.000000  -70029.718750
  302.000000  -70042.148438
  303.000000  -70056.406250
  304.000000  -70063.906250
  305.000000  -70075.328125
  307.000000  -70108.054688
  308.000000  -70137.351562
  309.000000  -70180.171875
  311.000000  -70193.390625
  312.000000  -70206.960938
  313.000000  -70216.046875
  314.000000  -70227.562500
  315.000000  -70230.421875
  316.000000  -70236.703125
  318.000000  -70285.164062
  319.000000  -70294.015625
  320.000000  -70356.906250
  322.000000  -70366.945312
  323.000000  -70378.906250
  324.000000  -70383.859375
  325.000000  -70391.937500
  327.000000  -70430.773438
  328.000000  -70450.773438
  329.000000  -70502.085938
  331.000000  -70512.484375
  332.000000  -70525.125000
  333.000000  -70530.882812
  334.000000  -70540.992188
  336.000000  -70572.109375
  337.000000  -70593.164062
  338.000000  -70633.234375
  340.000000  -70644.851562
  341.000000  -70656.125000
  342.000000  -70664.851562
  343.000000  -70673.171875
  344.000000  -70676.984375
  345.000000  -70678.843750
  347.000000  -70727.421875
  348.000000  -70740.890625
  349.000000  -70805.796875
  351.000000  -70812.921875
  352.000000  -70826.054688
  353.000000  -70826.406250
  354.000000  -70836.921875
  356.000000  -70872.234375
  357.000000  -70874.531250
  358.000000  -70920.585938
  360.000000  -70931.062500
  361.000000  -70939.734375
  362.000000  -70947.250000
  363.000000  -70951.507812
  364.000000  -70953.539062
  366.000000  -70997.156250
  367.000000  -71013.289062
  368.000000  -71070.906250
  370.000000  -71078.015625
  371.000000  -71089.914062
  372.000000  -71091.320312
  373.000000  -71101.031250
  375.000000  -71132.625000
  376.000000  -71138.335938
  377.000000  -71179.710938
  379.000000  -71189.421875
  380.000000  -71197.906250
  381.000000  -71204.953125
  382.000000  -71209.757812
  383.000000  -71211.265625
  385.000000  -71251.125000
  386.000000  -71273.835938
  387.000000  -71326.789062
  389.000000  -71333.468750
  390.000000  -71345.140625
  391.000000  -71346.007812
  392.000000  -71355.898438
  394.000000  -71384.140625
  395.000000  -71389.039062
  396.000000  -71426.039062
  398.000000  -71435.367188
  399.000000  -71443.351562
  400.000000  -71450.453125
  401.000000  -71454.656250
  402.000000  -71457.484375
  404.000000  -71492.890625
  405.000000  -71510.421875
  406.000000  -71557.656250
  408.000000  -71564.453125
  409.000000  -71574.968750
  410.000000  -71576.820312
  411.000000  -71585.726562
  413.000000  -71611.625000
  414.000000  -71618.734375
  415.000000  -71652.484375
  417.000000  -71661.343750
  418.000000  -71669.078125
  419.000000  -71675.953125
  420.000000  -71680.164062
  421.000000  -71682.898438
  423.000000  -71715.343750
  424.000000  -71735.101562
  425.000000  -71777.937500
  427.000000  -71784.570312
  428.000000  -71794.265625
  429.000000  -71796.398438
  430.000000  -71804.578125
  432.000000  -71828.859375
  433.000000  -71837.039062
  434.000000  -71868.710938
  436.000000  -71877.062500
  437.000000  -71884.617188
  438.000000  -71890.664062
  439.000000  -71895.843750
  440.000000  -71897.609375
  442.000000  -71927.781250
  443.000000  -71954.265625
  444.000000  -71994.929688
  446.000000  -72001.093750
  447.000000  -72011.195312
  448.000000  -72012.656250
  449.000000  -72021.921875
  451.000000  -72042.750000
  452.000000  -72048.398438
  453.000000  -72075.828125
  455.000000  -72083.984375
  456.000000  -72090.460938
  457.000000  -72097.789062
  458.000000  -72100.828125
  459.000000  -72105.257812
  461.000000  -72131.515625
  462.000000  -72143.625000
  463.000000  -72178.031250
  465.000000  -72184.804688
  466.000000  -72192.656250
  467.000000  -72196.359375
  468.000000  -72202.250000
  470.000000  -72223.640625
  471.000000  -72238.148438
  472.000000  -72266.476562
  474.000000  -72273.796875
  475.000000  -72281.531250
  476.000000  -72286.367188
  477.000000  -72292.664062
  478.000000  -72292.726562
  479.000000  -72295.515625
  481.000000  -72328.078125
  483.000000  -72340.757812
  484.000000  -72353.203125
  485.000000  -72355.421875
  486.000000  -72369.882812
  488.000000  -72380.765625
  489.000000  -72386.093750
  490.000000  -72398.843750
  492.000000  -72408.281250
  493.000000  -72415.585938
  494.000000  -72426.359375
  495.000000  -72427.882812
  496.000000  -72439.492188
  498.000000  -72452.976562
  499.000000  -72458.101562
  500.000000  -72474.968750
  502.000000  -72483.453125
  503.000000  -72489.273438
  504.000000  -72498.046875
  505.000000  -72500.046875
  506.000000  -72508.421875
  508.000000  -72525.281250
  509.000000  -72532.515625
  510.000000  -72554.593750
  512.000000  -72561.898438
  513.000000  -72567.937500
  514.000000  -72574.234375
  515.000000  -72578.398438
  516.000000  -72581.796875
  518.000000  -72603.281250
  519.000000  -72621.859375
  520.000000  -72650.390625
  522.000000  -72656.539062
  523.000000  -72664.203125
  524.000000  -72667.179688
  525.000000  -72673.906250
  527.000000  -72690.062500
  528.000000  -72699.453125
  529.000000  -72720.187500
  531.000000  -72727.085938
  532.000000  -72733.125000
  533.000000  -72738.968750
  534.000000  -72742.960938
  535.000000  -72746.718750
  537.000000  -72766.406250
  538.000000  -72782.812500
  539.000000  -72808.882812
  541.000000  -72814.757812
  542.000000  -72821.476562
  543.000000  -72824.953125
  544.000000  -72830.437500
  546.000000  -72846.523438
  547.000000  -72860.781250
  548.000000  -72881.851562
  550.000000  -72888.296875
  551.000000  -72894.968750
  552.000000  -72899.406250
  553.000000  -72905.132812
  554.000000  -72906.257812
  555.000000  -72909.257812
  557.000000  -72933.539062
  558.000000  -72937.406250
  559.000000  -72969.226562
  561.000000  -72974.156250
  562.000000  -72980.023438
  563.000000  -72982.351562
  564.000000  -72985.976562
  566.000000  -73006.281250
  567.000000  -73015.406250
  568.000000  -73042.296875
  570.000000  -73047.554688
  571.000000  -73054.101562
  572.000000  -73056.484375
  573.000000  -73062.101562
  575.000000  -73078.187500
  576.000000  -73087.062500
  577.000000  -73107.953125
  579.000000  -73113.789062
  580.000000  -73119.539062
  581.000000  -73124.187500
  582.000000  -73127.765625
  583.000000  -73129.804688
  585.000000  -73149.773438
  586.000000  -73167.296875
  587.000000  -73193.351562
  589.000000  -73198.062500
  590.000000  -73204.789062
  591.000000  -73207.195312
  592.000000  -73212.351562
  594.000000  -73227.507812
  595.000000  -73236.140625
  596.000000  -73256.343750
  598.000000  -73261.937500
  599.000000  -73267.617188
  600.000000  -73271.687500
  601.000000  -73276.015625
  602.000000  -73277.210938
  603.000000  -73278.656250
  605.000000  -73302.921875
  606.000000  -73305.703125
  607.000000  -73337.671875
  609.000000  -73341.570312
  610.000000  -73347.117188
  611.000000  -73348.109375
  612.000000  -73351.781250
  614.000000  -73371.250000
  615.000000  -73375.062500
  616.000000  -73401.265625
  618.000000  -73405.617188
  619.000000  -73411.171875
  620.000000  -73413.500000
  621.000000  -73417.656250
  623.000000  -73433.562500
  624.000000  -73441.640625
  625.000000  -73462.578125
  627.000000  -73467.664062
  628.000000  -73472.781250
  629.000000  -73476.343750
  630.000000  -73479.632812
  631.000000  -73480.679688
  633.000000  -73500.445312
  634.000000  -73517.328125
  635.000000  -73543.382812
  637.000000  -73547.320312
  638.000000  -73553.468750
  639.000000  -73554.968750
  640.000000  -73559.968750
  642.000000  -73574.664062
  643.000000  -73579.867188
  644.000000  -73599.140625
  646.000000  -73604.250000
  647.000000  -73609.156250
  648.000000  -73612.796875
  649.000000  -73616.093750
  650.000000  -73616.828125
  651.000000  -73617.359375
  653.000000  -73641.562500
  654.000000  -73642.414062
  655.000000  -73674.453125
  657.000000  -73677.507812
  658.000000  -73682.757812
  659.000000  -73683.031250
  660.000000  -73686.187500
  662.000000  -73705.343750
  663.000000  -73706.117188
  664.000000  -73731.640625
  666.000000  -73735.437500
  667.000000  -73740.453125
  668.000000  -73742.023438
  669.000000  -73745.453125
  671.000000  -73761.187500
  672.000000  -73767.437500
  673.000000  -73788.093750
  675.000000  -73792.812500
  676.000000  -73797.078125
  677.000000  -73800.156250
  678.000000  -73803.210938
  679.000000  -73803.500000
  681.000000  -73823.078125
  682.000000  -73837.187500
  683.000000  -73863.039062
  685.000000  -73866.546875
  686.000000  -73872.273438
  687.000000  -73872.804688
  688.000000  -73877.515625
  690.000000  -73891.625000
  691.000000  -73894.914062
  692.000000  -73913.796875
  694.000000  -73918.460938
  695.000000  -73922.750000
  696.000000  -73925.968750
  697.000000  -73928.773438
  698.000000  -73928.992188
  700.000000  -73947.601562
  701.000000  -73964.375000
  702.000000  -73989.812500
  704.000000  -73993.125000
  705.000000  -73999.375000
  707.000000  -74006.242188
  708.000000  -74012.710938
  709.000000  -74021.265625
  711.000000  -74026.546875
  712.000000  -74031.335938
  713.000000  -74036.953125
  714.000000  -74039.718750
  715.000000  -74045.226562
  717.000000  -74053.609375
  718.000000  -74061.015625
  719.000000  -74071.187500
  721.000000  -74076.140625
  722.000000  -74080.640625
  723.000000  -74085.562500
  724.000000  -74088.367188
  725.000000  -74092.703125
  726.000000  -74092.906250
  727.000000  -74095.562500
  729.000000  -74113.171875
  730.000000  -74113.445312
  731.000000  -74136.570312
  733.000000  -74140.203125
  734.000000  -74143.929688
  735.000000  -74145.937500
  736.000000  -74147.757812
  738.000000  -74163.164062
  739.000000  -74172.515625
  740.000000  -74193.625000
  742.000000  -74197.117188
  743.000000  -74202.359375
  744.000000  -74203.328125
  745.000000  -74208.125000
  747.000000  -74219.539062
  748.000000  -74223.328125
  749.000000  -74237.773438
  751.000000  -74242.429688
  752.000000  -74245.906250
  753.000000  -74250.046875
  754.000000  -74251.750000
  755.000000  -74254.375000
  757.000000  -74268.406250
  758.000000  -74274.484375
  759.000000  -74292.750000
  761.000000  -74296.750000
  762.000000  -74300.835938
  763.000000  -74303.195312
  764.000000  -74306.031250
  766.000000  -74318.132812
  767.000000  -74329.289062
  768.000000  -74345.484375
  770.000000  -74349.500000
  771.000000  -74354.265625
  772.000000  -74356.453125
  773.000000  -74360.820312
  775.000000  -74370.132812
  776.000000  -74376.921875
  777.000000  -74388.476562
  779.000000  -74393.093750
  780.000000  -74396.882812
  781.000000  -74400.953125
  782.000000  -74403.359375
  783.000000  -74406.351562
  785.000000  -74417.406250
  786.000000  -74427.250000
  787.000000  -74441.648438
  789.000000  -74445.757812
  790.000000  -74449.765625
  791.000000  -74452.812500
  792.000000  -74455.906250
  793.000000  -74456.890625
  794.000000  -74457.609375
  796.000000  -74474.890625
  797.000000  -74478.953125
  798.000000  -74502.953125
  800.000000  -74505.429688
  801.000000  -74510.375000
  803.000000  -74517.468750
  804.000000  -74523.921875
  805.000000  -74532.554688
  807.000000  -74537.085938
  808.000000  -74541.000000
  809.000000  -74545.414062
  810.000000  -74547.710938
  811.000000  -74551.851562
  813.000000  -74560.156250
  814.000000  -74568.164062
  815.000000  -74578.835938
  817.000000  -74583.101562
  818.000000  -74586.773438
  819.000000  -74590.593750
  820.000000  -74593.320312
  821.000000  -74596.226562
  822.000000  -74596.500000
  823.000000  -74596.976562
  825.000000  -74615.398438
  827.000000  -74622.578125
  828.000000  -74629.484375
  829.000000  -74630.468750
  830.000000  -74638.460938
  832.000000  -74644.390625
  833.000000  -74646.757812
  834.000000  -74653.609375
  836.000000  -74658.750000
  837.000000  -74662.390625
  838.000000  -74668.460938
  839.000000  -74668.835938
  840.000000  -74675.148438
  842.000000  -74682.578125
  843.000000  -74685.039062
  844.000000  -74694.421875
  846.000000  -74699.085938
  847.000000  -74702.015625
  848.000000  -74706.718750
  849.000000  -74707.765625
  850.000000  -74711.804688
  852.000000  -74721.539062
  853.000000  -74725.453125
  854.000000  -74738.335938
  856.000000  -74742.281250
  857.000000  -74745.750000
  858.000000  -74748.625000
  859.000000  -74751.257812
  860.000000  -74752.265625
  861.000000  -74752.796875
  863.000000  -74769.273438
  864.000000  -74772.703125
  865.000000  -74794.281250
  867.000000  -74796.812500
  868.000000  -74800.601562
  869.000000  -74801.250000
  870.000000  -74803.757812
  872.000000  -74816.789062
  873.000000  -74818.750000
  874.000000  -74836.421875
  876.000000  -74839.445312
  877.000000  -74843.179688
  878.000000  -74844.515625
  879.000000  -74847.273438
  881.000000  -74858.140625
